wavelength,response
0.32000000,0.00000002
0.32100000,0.00000016
0.32200000,0.00000091
0.32300000,0.00000478
0.32400000,0.00002394
0.32500000,0.00010365
0.32600000,0.00037228
0.32700000,0.00109382
0.32800000,0.00265175
0.32900000,0.00545098
0.33000000,0.00976875
0.33100000,0.01562759
0.33200000,0.02277412
0.33300000,0.03076133
0.33400000,0.03936171
0.33500000,0.04810516
0.33600000,0.05659746
0.33700000,0.06486523
0.33800000,0.07259985
0.33900000,0.07997990
0.34000000,0.08688374
0.34100000,0.09348921
0.34200000,0.09950982
0.34300000,0.10482133
0.34400000,0.10956773
0.34500000,0.11384479
0.34600000,0.11732225
0.34700000,0.12024804
0.34800000,0.12261648
0.34900000,0.12448136
0.35000000,0.12591007
0.35100000,0.12687385
0.35200000,0.12734963
0.35300000,0.12744424
0.35400000,0.12742716
0.35500000,0.12699165
0.35600000,0.12629405
0.35700000,0.12524600
0.35800000,0.12422981
0.35900000,0.12284782
0.36000000,0.12144251
0.36100000,0.12007806
0.36200000,0.11841590
0.36300000,0.11708205
0.36400000,0.11560274
0.36500000,0.11432002
0.36600000,0.11309868
0.36700000,0.11183735
0.36800000,0.11089717
0.36900000,0.11013763
0.37000000,0.10934905
0.37100000,0.10899301
0.37200000,0.10852836
0.37300000,0.10822954
0.37400000,0.10818023
0.37500000,0.10845096
0.37600000,0.10910806
0.37700000,0.10998953
0.37800000,0.11126266
0.37900000,0.11340950
0.38000000,0.11629320
0.38100000,0.12005807
0.38200000,0.12500476
0.38300000,0.13090109
0.38400000,0.13802650
0.38500000,0.14629011
0.38600000,0.15592948
0.38700000,0.16660602
0.38800000,0.17836287
0.38900000,0.19116801
0.39000000,0.20461829
0.39100000,0.21864294
0.39200000,0.23324188
0.39300000,0.24775737
0.39400000,0.26244978
0.39500000,0.27656159
0.39600000,0.29048447
0.39700000,0.30378684
0.39800000,0.31644434
0.39900000,0.32903632
0.40000000,0.34084777
0.40100000,0.35172756
0.40200000,0.36252337
0.40300000,0.37339529
0.40400000,0.38316870
0.40500000,0.39248735
0.40600000,0.40170625
0.40700000,0.41008049
0.40800000,0.41811138
0.40900000,0.42589775
0.41000000,0.43323589
0.41100000,0.44071367
0.41200000,0.44789761
0.41300000,0.45432471
0.41400000,0.46031316
0.41500000,0.46641954
0.41600000,0.47224547
0.41700000,0.47778657
0.41800000,0.48321288
0.41900000,0.48815468
0.42000000,0.49291519
0.42100000,0.49760796
0.42200000,0.50194146
0.42300000,0.50661590
0.42400000,0.51065540
0.42500000,0.51423036
0.42600000,0.51816760
0.42700000,0.52223185
0.42800000,0.52588402
0.42900000,0.52917259
0.43000000,0.53250606
0.43100000,0.53555771
0.43200000,0.53851693
0.43300000,0.54171020
0.43400000,0.54480684
0.43500000,0.54792030
0.43600000,0.55073781
0.43700000,0.55284928
0.43800000,0.55524031
0.43900000,0.55762555
0.44000000,0.56012104
0.44100000,0.56251756
0.44200000,0.56495565
0.44300000,0.56746752
0.44400000,0.56969852
0.44500000,0.57203880
0.44600000,0.57401536
0.44700000,0.57572851
0.44800000,0.57794078
0.44900000,0.58024933
0.45000000,0.58187167
0.45100000,0.58339369
0.45200000,0.58562795
0.45300000,0.58749350
0.45400000,0.58902513
0.45500000,0.59085182
0.45600000,0.59263938
0.45700000,0.59401590
0.45800000,0.59556885
0.45900000,0.59739226
0.46000000,0.59892136
0.46100000,0.60046711
0.46200000,0.60187278
0.46300000,0.60306683
0.46400000,0.60450483
0.46500000,0.60629382
0.46600000,0.60785946
0.46700000,0.60884693
0.46800000,0.60988537
0.46900000,0.61154527
0.47000000,0.61274340
0.47100000,0.61370032
0.47200000,0.61538099
0.47300000,0.61674901
0.47400000,0.61768886
0.47500000,0.61878506
0.47600000,0.62019269
0.47700000,0.62171695
0.47800000,0.62288663
0.47900000,0.62367043
0.48000000,0.62445627
0.48100000,0.62614324
0.48200000,0.62689290
0.48300000,0.62732693
0.48400000,0.62818737
0.48500000,0.62941639
0.48600000,0.63062893
0.48700000,0.63182814
0.48800000,0.63272291
0.48900000,0.63361625
0.49000000,0.63459205
0.49100000,0.63543486
0.49200000,0.63598397
0.49300000,0.63686544
0.49400000,0.63809640
0.49500000,0.63961688
0.49600000,0.64054584
0.49700000,0.64134841
0.49800000,0.64210822
0.49900000,0.64235125
0.50000000,0.64287687
0.50100000,0.64380863
0.50200000,0.64532555
0.50300000,0.64590563
0.50400000,0.64646736
0.50500000,0.64742807
0.50600000,0.64824207
0.50700000,0.64943775
0.50800000,0.65001670
0.50900000,0.65023749
0.51000000,0.65138427
0.51100000,0.65255849
0.51200000,0.65310772
0.51300000,0.65319309
0.51400000,0.65457695
0.51500000,0.65535308
0.51600000,0.65574003
0.51700000,0.65636646
0.51800000,0.65686775
0.51900000,0.65785650
0.52000000,0.65923429
0.52100000,0.66014824
0.52200000,0.66062000
0.52300000,0.66095528
0.52400000,0.66162288
0.52500000,0.66254035
0.52600000,0.66316552
0.52700000,0.66379553
0.52800000,0.66433568
0.52900000,0.66473489
0.53000000,0.66518085
0.53100000,0.66626812
0.53200000,0.66720856
0.53300000,0.66814617
0.53400000,0.66914548
0.53500000,0.66937087
0.53600000,0.66989329
0.53700000,0.67033703
0.53800000,0.67088459
0.53900000,0.67175992
0.54000000,0.67262418
0.54100000,0.67323381
0.54200000,0.67369911
0.54300000,0.67376255
0.54400000,0.67394575
0.54500000,0.67460109
0.54600000,0.67569514
0.54700000,0.67676107
0.54800000,0.67699386
0.54900000,0.67737485
0.55000000,0.67789269
0.55100000,0.67811659
0.55200000,0.67830999
0.55300000,0.67979832
0.55400000,0.68059348
0.55500000,0.68091220
0.55600000,0.68144679
0.55700000,0.68194505
0.55800000,0.68223450
0.55900000,0.68248945
0.56000000,0.68337283
0.56100000,0.68357267
0.56200000,0.68449094
0.56300000,0.68482853
0.56400000,0.68550953
0.56500000,0.68596716
0.56600000,0.68627668
0.56700000,0.68717159
0.56800000,0.68764013
0.56900000,0.68738583
0.57000000,0.68821859
0.57100000,0.68827611
0.57200000,0.68866093
0.57300000,0.68909186
0.57400000,0.68995144
0.57500000,0.69011562
0.57600000,0.69054510
0.57700000,0.69110096
0.57800000,0.69220691
0.57900000,0.69239856
0.58000000,0.69290924
0.58100000,0.69380888
0.58200000,0.69385654
0.58300000,0.69481061
0.58400000,0.69496361
0.58500000,0.69504862
0.58600000,0.69490795
0.58700000,0.69621241
0.58800000,0.69675884
0.58900000,0.69767849
0.59000000,0.69836031
0.59100000,0.69809716
0.59200000,0.69753573
0.59300000,0.69867117
0.59400000,0.69912968
0.59500000,0.69964880
0.59600000,0.70091980
0.59700000,0.70047594
0.59800000,0.70083316
0.59900000,0.70078533
0.60000000,0.70128136
0.60100000,0.70297876
0.60200000,0.70256142
0.60300000,0.70290372
0.60400000,0.70373063
0.60500000,0.70362998
0.60600000,0.70411471
0.60700000,0.70417976
0.60800000,0.70502241
0.60900000,0.70567701
0.61000000,0.70592639
0.61100000,0.70685563
0.61200000,0.70670631
0.61300000,0.70732970
0.61400000,0.70769222
0.61500000,0.70837207
0.61600000,0.70880734
0.61700000,0.70891781
0.61800000,0.70852043
0.61900000,0.70923118
0.62000000,0.70994576
0.62100000,0.71031323
0.62200000,0.71133613
0.62300000,0.71091951
0.62400000,0.71040004
0.62500000,0.71086970
0.62600000,0.71119689
0.62700000,0.71180781
0.62800000,0.71190467
0.62900000,0.71240113
0.63000000,0.71228656
0.63100000,0.71285188
0.63200000,0.71377132
0.63300000,0.71369165
0.63400000,0.71386835
0.63500000,0.71369775
0.63600000,0.71449300
0.63700000,0.71467808
0.63800000,0.71538875
0.63900000,0.71492146
0.64000000,0.71490022
0.64100000,0.71502466
0.64200000,0.71567300
0.64300000,0.71605014
0.64400000,0.71602967
0.64500000,0.71569197
0.64600000,0.71587638
0.64700000,0.71696023
0.64800000,0.71688559
0.64900000,0.71633559
0.65000000,0.71685220
0.65100000,0.71713304
0.65200000,0.71721819
0.65300000,0.71747634
0.65400000,0.71737814
0.65500000,0.71707432
0.65600000,0.71731534
0.65700000,0.71714179
0.65800000,0.71778880
0.65900000,0.71742628
0.66000000,0.71806202
0.66100000,0.71786306
0.66200000,0.71790500
0.66300000,0.71734934
0.66400000,0.71757218
0.66500000,0.71785548
0.66600000,0.71833192
0.66700000,0.71859126
0.66800000,0.71837043
0.66900000,0.71790482
0.67000000,0.71742402
0.67100000,0.71784316
0.67200000,0.71713266
0.67300000,0.71805306
0.67400000,0.71781632
0.67500000,0.71745498
0.67600000,0.71681076
0.67700000,0.71661373
0.67800000,0.71670368
0.67900000,0.71680755
0.68000000,0.71640470
0.68100000,0.71602682
0.68200000,0.71549960
0.68300000,0.71519464
0.68400000,0.71487926
0.68500000,0.71472161
0.68600000,0.71445088
0.68700000,0.71409494
0.68800000,0.71372684
0.68900000,0.71392332
0.69000000,0.71302574
0.69100000,0.71303672
0.69200000,0.71358525
0.69300000,0.71175562
0.69400000,0.71204312
0.69500000,0.71116023
0.69600000,0.71102058
0.69700000,0.71052135
0.69800000,0.70993741
0.69900000,0.71005566
0.70000000,0.70949586
0.70100000,0.70904304
0.70200000,0.70716752
0.70300000,0.70646445
0.70400000,0.70675322
0.70500000,0.70632578
0.70600000,0.70594044
0.70700000,0.70473993
0.70800000,0.70357951
0.70900000,0.70271731
0.71000000,0.70234448
0.71100000,0.70183031
0.71200000,0.70117167
0.71300000,0.70039392
0.71400000,0.69983106
0.71500000,0.69846083
0.71600000,0.69781864
0.71700000,0.69715362
0.71800000,0.69574289
0.71900000,0.69471231
0.72000000,0.69488508
0.72100000,0.69288557
0.72200000,0.69171110
0.72300000,0.69035320
0.72400000,0.69040645
0.72500000,0.68874901
0.72600000,0.68894491
0.72700000,0.68740757
0.72800000,0.68548890
0.72900000,0.68437806
0.73000000,0.68286323
0.73100000,0.68250764
0.73200000,0.68112718
0.73300000,0.68022661
0.73400000,0.67905944
0.73500000,0.67775676
0.73600000,0.67573978
0.73700000,0.67412684
0.73800000,0.67333211
0.73900000,0.67238924
0.74000000,0.67088082
0.74100000,0.66898052
0.74200000,0.66724353
0.74300000,0.66598396
0.74400000,0.66404654
0.74500000,0.66286731
0.74600000,0.66069331
0.74700000,0.65901415
0.74800000,0.65819832
0.74900000,0.65640776
0.75000000,0.65437554
0.75100000,0.65295692
0.75200000,0.65162627
0.75300000,0.64903229
0.75400000,0.64715054
0.75500000,0.64623166
0.75600000,0.64430116
0.75700000,0.64259190
0.75800000,0.64052527
0.75900000,0.63885988
0.76000000,0.63610596
0.76100000,0.63434390
0.76200000,0.63289610
0.76300000,0.63097668
0.76400000,0.62929642
0.76500000,0.62730374
0.76600000,0.62503068
0.76700000,0.62222729
0.76800000,0.62091186
0.76900000,0.61787395
0.77000000,0.61550146
0.77100000,0.61384083
0.77200000,0.61135464
0.77300000,0.60906852
0.77400000,0.60747981
0.77500000,0.60508946
0.77600000,0.60263640
0.77700000,0.59945749
0.77800000,0.59754144
0.77900000,0.59592945
0.78000000,0.59239998
0.78100000,0.58992293
0.78200000,0.58849893
0.78300000,0.58617787
0.78400000,0.58273938
0.78500000,0.57994154
0.78600000,0.57751544
0.78700000,0.57494187
0.78800000,0.57257319
0.78900000,0.57026716
0.79000000,0.56740255
0.79100000,0.56484674
0.79200000,0.56259101
0.79300000,0.56012576
0.79400000,0.55710003
0.79500000,0.55391081
0.79600000,0.55119975
0.79700000,0.54845571
0.79800000,0.54593261
0.79900000,0.54272165
0.80000000,0.53958362
0.80100000,0.53647676
0.80200000,0.53386279
0.80300000,0.53143633
0.80400000,0.52840388
0.80500000,0.52512291
0.80600000,0.52177807
0.80700000,0.51906775
0.80800000,0.51584011
0.80900000,0.51318664
0.81000000,0.51009223
0.81100000,0.50738239
0.81200000,0.50388556
0.81300000,0.50211559
0.81400000,0.49922411
0.81500000,0.49597151
0.81600000,0.49199643
0.81700000,0.48882377
0.81800000,0.48604577
0.81900000,0.48268899
0.82000000,0.47912540
0.82100000,0.47589734
0.82200000,0.47314265
0.82300000,0.46990759
0.82400000,0.46691932
0.82500000,0.46323270
0.82600000,0.45988463
0.82700000,0.45688911
0.82800000,0.45334695
0.82900000,0.45004578
0.83000000,0.44739383
0.83100000,0.44430981
0.83200000,0.44108594
0.83300000,0.43800088
0.83400000,0.43510554
0.83500000,0.43212181
0.83600000,0.42862086
0.83700000,0.42448265
0.83800000,0.42106658
0.83900000,0.41804117
0.84000000,0.41478490
0.84100000,0.41098551
0.84200000,0.40762647
0.84300000,0.40464873
0.84400000,0.40252529
0.84500000,0.39852157
0.84600000,0.39441834
0.84700000,0.39075633
0.84800000,0.38732097
0.84900000,0.38418258
0.85000000,0.38035191
0.85100000,0.37717709
0.85200000,0.37402013
0.85300000,0.37014858
0.85400000,0.36699632
0.85500000,0.36413527
0.85600000,0.36084993
0.85700000,0.35788417
0.85800000,0.35391088
0.85900000,0.34988780
0.86000000,0.34726375
0.86100000,0.34357015
0.86200000,0.34102052
0.86300000,0.33787250
0.86400000,0.33414719
0.86500000,0.33013541
0.86600000,0.32748904
0.86700000,0.32364448
0.86800000,0.31894427
0.86900000,0.31684339
0.87000000,0.31399507
0.87100000,0.31018429
0.87200000,0.30679367
0.87300000,0.30473926
0.87400000,0.30150884
0.87500000,0.29782340
0.87600000,0.29474466
0.87700000,0.29123631
0.87800000,0.28774911
0.87900000,0.28389844
0.88000000,0.28049168
0.88100000,0.27775303
0.88200000,0.27488383
0.88300000,0.27142299
0.88400000,0.26785663
0.88500000,0.26460675
0.88600000,0.26145567
0.88700000,0.25860127
0.88800000,0.25605039
0.88900000,0.25276447
0.89000000,0.24947094
0.89100000,0.24616458
0.89200000,0.24269581
0.89300000,0.23947502
0.89400000,0.23692865
0.89500000,0.23362671
0.89600000,0.23061955
0.89700000,0.22789605
0.89800000,0.22458760
0.89900000,0.22117676
0.90000000,0.21831488
0.90100000,0.21548639
0.90200000,0.21246255
0.90300000,0.20935106
0.90400000,0.20652602
0.90500000,0.20362096
0.90600000,0.20090622
0.90700000,0.19786453
0.90800000,0.19505322
0.90900000,0.19255259
0.91000000,0.18957811
0.91100000,0.18640922
0.91200000,0.18340602
0.91300000,0.18069764
0.91400000,0.17827350
0.91500000,0.17567722
0.91600000,0.17299696
0.91700000,0.17034690
0.91800000,0.16737521
0.91900000,0.16451362
0.92000000,0.16207209
0.92100000,0.15958039
0.92200000,0.15685173
0.92300000,0.15425913
0.92400000,0.15167082
0.92500000,0.14902198
0.92600000,0.14636609
0.92700000,0.14398538
0.92800000,0.14163083
0.92900000,0.13936843
0.93000000,0.13711930
0.93100000,0.13453162
0.93200000,0.13214524
0.93300000,0.12981852
0.93400000,0.12747544
0.93500000,0.12512548
0.93600000,0.12293757
0.93700000,0.12071180
0.93800000,0.11831435
0.93900000,0.11601880
0.94000000,0.11375862
0.94100000,0.11169353
0.94200000,0.10961591
0.94300000,0.10740266
0.94400000,0.10537465
0.94500000,0.10323946
0.94600000,0.10106193
0.94700000,0.09901795
0.94800000,0.09708767
0.94900000,0.09509856
0.95000000,0.09318914
0.95100000,0.09129315
0.95200000,0.08953654
0.95300000,0.08764069
0.95400000,0.08582601
0.95500000,0.08389643
0.95600000,0.08180116
0.95700000,0.08012607
0.95800000,0.07849051
0.95900000,0.07675712
0.96000000,0.07498328
0.96100000,0.07320334
0.96200000,0.07142719
0.96300000,0.06973843
0.96400000,0.06810548
0.96500000,0.06656211
0.96600000,0.06505668
0.96700000,0.06353665
0.96800000,0.06194145
0.96900000,0.06034441
0.97000000,0.05881950
0.97100000,0.05728425
0.97200000,0.05583201
0.97300000,0.05447313
0.97400000,0.05318924
0.97500000,0.05188193
0.97600000,0.05049600
0.97700000,0.04910435
0.97800000,0.04773972
0.97900000,0.04642904
0.98000000,0.04515232
0.98100000,0.04395379
0.98200000,0.04278429
0.98300000,0.04160600
0.98400000,0.04044913
0.98500000,0.03931753
0.98600000,0.03812287
0.98700000,0.03700172
0.98800000,0.03588921
0.98900000,0.03486945
0.99000000,0.03386778
0.99100000,0.03285450
0.99200000,0.03186352
0.99300000,0.03085060
0.99400000,0.02984223
0.99500000,0.02886983
0.99600000,0.02790962
0.99700000,0.02701559
0.99800000,0.02618264
0.99900000,0.02537612
1.00000000,0.02453819
1.00100000,0.02369019
1.00200000,0.02286540
1.00300000,0.02206169
1.00400000,0.02127504
1.00500000,0.02053937
1.00600000,0.01982528
1.00700000,0.01913925
1.00800000,0.01846349
1.00900000,0.01779403
1.01000000,0.01710453
1.01100000,0.01644089
1.01200000,0.01579928
1.01300000,0.01518901
1.01400000,0.01460008
1.01500000,0.01404390
1.01600000,0.01351521
1.01700000,0.01298901
1.01800000,0.01243263
1.01900000,0.01191803
1.02000000,0.01139589
1.02100000,0.01091154
1.02200000,0.01045211
1.02300000,0.01001290
1.02400000,0.00959084
1.02500000,0.00919348
1.02600000,0.00879047
1.02700000,0.00838172
1.02800000,0.00798809
1.02900000,0.00761581
1.03000000,0.00725157
1.03100000,0.00691641
1.03200000,0.00659050
1.03300000,0.00628199
1.03400000,0.00597896
1.03500000,0.00568605
1.03600000,0.00540603
1.03700000,0.00512860
1.03800000,0.00486307
1.03900000,0.00460737
1.04000000,0.00436701
1.04100000,0.00413684
1.04200000,0.00391410
1.04300000,0.00370427
1.04400000,0.00349769
1.04500000,0.00329787
1.04600000,0.00310114
1.04700000,0.00291166
1.04800000,0.00273715
1.04900000,0.00257163
1.05000000,0.00241251
